seconds,hours,Ch1,Ch2,Ch3,Ch4,Temp
0,0,188.05,182.58,204.48,202.92,28.427
2.21,0.000613889,188.07,182.59,204.32,203.07,28.423
4.57,0.001269444,188.08,182.61,204.19,203.15,28.42
6.91,0.001919444,188.1,182.62,204.07,203.24,28.415
9.28,0.002577778,188.11,182.63,203.95,203.34,28.411
11.61,0.003225,188.13,182.64,203.8,203.46,28.408
13.96,0.003877778,188.15,182.67,203.65,203.59,28.407
16.32,0.004533333,188.15,182.66,203.47,203.68,28.409
18.67,0.005186111,188.16,182.63,203.27,203.79,28.414
21.03,0.005841667,188.14,182.6,203.05,203.83,28.419
23.39,0.006497222,188.09,182.59,202.86,203.92,28.423
25.73,0.007147222,188.04,182.57,202.69,204.02,28.427
28.08,0.0078,188.01,182.53,202.48,204.13,28.433
30.42,0.00845,188.03,182.51,202.26,204.24,28.437
32.78,0.009105556,188.01,182.5,202.03,204.31,28.441
35.12,0.009755556,188.01,182.5,201.84,204.45,28.441
37.48,0.010411111,188,182.49,201.66,204.55,28.443
39.85,0.011069444,188,182.48,201.49,204.63,28.444
42.21,0.011725,188,182.48,201.3,204.72,28.447
44.57,0.012380556,188,182.49,201.12,204.85,28.447
46.93,0.013036111,188,182.47,200.94,204.99,28.448
49.27,0.013686111,188,182.46,200.77,205.11,28.449
51.65,0.014347222,187.98,182.46,200.58,205.24,28.449
54,0.015,187.97,182.45,200.4,205.32,28.45
56.19,0.015608333,187.97,182.47,200.23,205.43,28.449
58.27,0.016186111,188,182.47,200.07,205.57,28.449
60.34,0.016761111,187.99,182.48,199.93,205.69,28.448
62.41,0.017336111,187.98,182.46,199.78,205.8,28.449
64.49,0.017913889,187.98,182.45,199.67,205.87,28.447
66.55,0.018486111,187.97,182.45,199.52,205.98,28.447
68.63,0.019063889,187.97,182.46,199.43,206.11,28.445
70.7,0.019638889,187.97,182.46,199.33,206.24,28.445
72.77,0.020213889,188.02,182.48,199.26,206.4,28.441
74.85,0.020791667,188,182.46,199.14,206.49,28.443
76.95,0.021375,188,182.46,199.04,206.59,28.444
79.03,0.021952778,187.99,182.43,198.95,206.65,28.447
81.1,0.022527778,188.02,182.44,198.87,206.78,28.445
83.17,0.023102778,188.02,182.44,198.77,206.88,28.443
85.26,0.023683333,188.03,182.45,198.67,206.97,28.442
87.35,0.024263889,188.01,182.44,198.6,207,28.442
89.41,0.024836111,188,182.43,198.47,207.04,28.444
91.49,0.025413889,187.98,182.42,198.3,207.13,28.445
93.56,0.025988889,187.98,182.45,198.12,207.26,28.445
95.63,0.026563889,187.97,182.44,197.92,207.37,28.445
97.7,0.027138889,187.96,182.45,197.74,207.47,28.444
99.77,0.027713889,187.97,182.45,197.55,207.57,28.444
101.85,0.028291667,187.98,182.46,197.39,207.69,28.442
103.92,0.028866667,188.01,182.46,197.2,207.8,28.441
105.99,0.029441667,187.99,182.45,197.01,207.91,28.442
108.06,0.030016667,187.99,182.45,196.78,207.99,28.444
110.15,0.030597222,187.99,182.45,196.62,208.09,28.441
112.22,0.031172222,188.01,182.44,196.43,208.19,28.44
114.29,0.031747222,188,182.43,196.27,208.31,28.438
116.35,0.032319444,188.01,182.42,196.09,208.38,28.441
118.42,0.032894444,188.03,182.44,195.9,208.48,28.44
120.49,0.033469444,188.06,182.45,195.73,208.6,28.439
122.57,0.034047222,188.03,182.43,195.56,208.72,28.44
124.64,0.034622222,188,182.43,195.45,208.85,28.44
126.71,0.035197222,187.98,182.45,195.33,208.98,28.441
128.77,0.035769444,188,182.45,195.2,209.12,28.44
130.85,0.036347222,188.01,182.44,195.04,209.22,28.44
132.91,0.036919444,188.02,182.41,194.92,209.31,28.437
134.99,0.037497222,188.04,182.4,194.81,209.45,28.437
137.06,0.038072222,188.06,182.39,194.72,209.57,28.436
139.15,0.038652778,188.04,182.41,194.62,209.65,28.435
141.21,0.039225,188.02,182.44,194.52,209.71,28.435
143.28,0.0398,188.01,182.45,194.43,209.78,28.435
145.36,0.040377778,188.03,182.43,194.34,209.89,28.436
147.44,0.040955556,188.03,182.43,194.25,209.99,28.435
149.51,0.041530556,188.04,182.43,194.16,210.1,28.433
151.58,0.042105556,188.05,182.44,194.07,210.22,28.429
153.64,0.042677778,188.05,182.44,193.97,210.33,28.429
155.71,0.043252778,188.03,182.45,193.85,210.41,28.43
157.78,0.043827778,188.03,182.45,193.75,210.48,28.432
159.85,0.044402778,188.03,182.45,193.69,210.54,28.431
161.91,0.044975,188.03,182.43,193.59,210.63,28.432
164,0.045555556,188.01,182.43,193.51,210.74,28.433
166.07,0.046130556,188,182.4,193.39,210.85,28.437
168.14,0.046705556,188.01,182.39,193.3,210.91,28.438
170.21,0.047280556,187.99,182.4,193.21,211.01,28.437
172.27,0.047852778,188,182.41,193.13,211.11,28.436
174.35,0.048430556,188.02,182.42,193.06,211.21,28.434
176.42,0.049005556,188.03,182.41,192.99,211.27,28.434
178.5,0.049583333,188.04,182.43,192.92,211.37,28.432
180.58,0.050161111,188.01,182.43,192.86,211.49,28.433
182.65,0.050736111,187.97,182.42,192.8,211.57,28.435
184.72,0.051311111,187.96,182.41,192.75,211.64,28.436
186.78,0.051883333,187.99,182.4,192.69,211.67,28.435
188.86,0.052461111,188.01,182.4,192.62,211.77,28.435
190.93,0.053036111,188.01,182.4,192.55,211.86,28.435
193,0.053611111,188,182.4,192.49,211.96,28.436
195.06,0.054183333,188,182.4,192.46,212.04,28.436
197.14,0.054761111,188.01,182.41,192.4,212.11,28.436
199.21,0.055336111,188.02,182.4,192.36,212.21,28.436
201.31,0.055919444,188,182.38,192.3,212.27,28.438
203.38,0.056494444,187.99,182.35,192.25,212.35,28.436
205.45,0.057069444,187.99,182.33,192.19,212.43,28.435
207.52,0.057644444,188.02,182.34,192.15,212.59,28.433
209.59,0.058219444,188.01,182.37,192.11,212.72,28.434
211.68,0.0588,188.02,182.39,192.06,212.78,28.435
213.75,0.059375,187.99,182.39,191.97,212.81,28.437
215.82,0.05995,188,182.38,191.91,212.86,28.436
217.89,0.060525,188,182.38,191.86,212.98,28.435
219.96,0.0611,188.02,182.39,191.8,213.12,28.433
222.03,0.061675,188,182.38,191.7,213.22,28.434
224.09,0.062247222,187.98,182.36,191.61,213.27,28.435
226.16,0.062822222,187.98,182.35,191.52,213.35,28.435
228.23,0.063397222,188,182.34,191.44,213.43,28.435
230.3,0.063972222,187.98,182.37,191.36,213.51,28.434
232.36,0.064544444,187.97,182.37,191.28,213.56,28.434
234.44,0.065122222,187.99,182.37,191.19,213.6,28.434
236.52,0.0657,188.01,182.36,191.13,213.73,28.434
238.59,0.066275,188.02,182.37,191.08,213.79,28.433
240.66,0.06685,188.01,182.37,191.05,213.87,28.433
242.72,0.067422222,188.03,182.37,190.99,213.91,28.435
244.79,0.067997222,188.01,182.34,190.95,213.97,28.436
246.87,0.068575,188.01,182.3,190.88,214.04,28.435
248.93,0.069147222,187.99,182.29,190.79,214.12,28.433
251,0.069722222,188.02,182.31,190.72,214.21,28.43
253.06,0.070294444,188,182.34,190.68,214.3,28.43
255.13,0.070869444,187.98,182.36,190.65,214.34,28.43
257.21,0.071447222,187.98,182.38,190.61,214.39,28.43
259.29,0.072025,187.99,182.39,190.53,214.43,28.431
261.37,0.072602778,188,182.39,190.51,214.5,28.43
263.45,0.073180556,188.01,182.37,190.43,214.56,28.431
265.51,0.073752778,188.02,182.35,190.4,214.63,28.429
267.6,0.074333333,188.02,182.34,190.32,214.68,28.432
269.68,0.074911111,188.02,182.35,190.27,214.74,28.431
271.74,0.075483333,188.03,182.34,190.24,214.81,28.43
273.82,0.076061111,188.04,182.34,190.18,214.87,28.428
275.9,0.076638889,188.02,182.31,190.14,214.9,28.43
277.98,0.077216667,188,182.31,190.1,214.93,28.429
280.05,0.077791667,188,182.3,190.08,215,28.429
282.11,0.078363889,188,182.29,190.05,215.06,28.428
284.2,0.078944444,188,182.28,190.02,215.1,28.432
286.27,0.079519444,187.99,182.29,190.01,215.14,28.433
288.34,0.080094444,187.97,182.31,189.98,215.21,28.433
290.42,0.080672222,187.95,182.31,189.96,215.28,28.43
292.51,0.081252778,187.95,182.3,189.9,215.32,28.433
294.58,0.081827778,187.98,182.29,189.87,215.35,28.434
296.65,0.082402778,187.98,182.27,189.83,215.38,28.436
298.71,0.082975,187.98,182.28,189.82,215.42,28.435
300.78,0.08355,187.96,182.24,189.79,215.48,28.437
302.86,0.084127778,187.96,182.23,189.77,215.49,28.438
304.94,0.084705556,187.96,182.23,189.74,215.59,28.436
307,0.085277778,187.98,182.24,189.74,215.63,28.434
309.07,0.085852778,188,182.22,189.73,215.67,28.433
311.13,0.086425,187.99,182.18,189.7,215.65,28.437
313.2,0.087,187.97,182.16,189.66,215.71,28.436
315.29,0.087580556,187.93,182.15,189.6,215.78,28.436
317.36,0.088155556,187.96,182.12,189.58,215.88,28.433
319.43,0.088730556,187.99,182.08,189.54,215.91,28.432
321.51,0.089308333,188.02,182.05,189.5,215.96,28.431
323.58,0.089883333,188.03,182.03,189.44,215.99,28.431
325.66,0.090461111,188.01,182.02,189.39,216.02,28.432
327.75,0.091041667,187.99,181.99,189.36,216.06,28.432
329.82,0.091616667,187.96,181.96,189.34,216.11,28.433
331.89,0.092191667,187.98,181.93,189.33,216.12,28.433
333.97,0.092769444,187.98,181.88,189.31,216.15,28.433
336.05,0.093347222,188,181.86,189.31,216.19,28.431
338.12,0.093922222,187.96,181.82,189.3,216.24,28.432
340.19,0.094497222,187.97,181.82,189.28,216.29,28.432
342.26,0.095072222,187.96,181.79,189.27,216.33,28.432
344.32,0.095644444,188,181.76,189.25,216.36,28.43
346.39,0.096219444,188,181.74,189.24,216.4,28.429
348.46,0.096794444,188,181.71,189.22,216.42,28.429
350.53,0.097369444,187.99,181.72,189.23,216.47,28.428
352.61,0.097947222,187.99,181.68,189.22,216.47,28.428
354.7,0.098527778,187.99,181.68,189.2,216.54,28.428
356.76,0.0991,188,181.65,189.16,216.55,28.43
358.83,0.099675,187.99,181.64,189.14,216.62,28.429
360.91,0.100252778,188,181.62,189.12,216.65,28.428
362.98,0.100827778,188.02,181.62,189.12,216.75,28.423
365.06,0.101405556,188,181.59,189.07,216.76,28.423
367.13,0.101980556,188.01,181.57,189.05,216.77,28.423
369.21,0.102558333,187.99,181.52,189.03,216.76,28.424
371.28,0.103133333,188,181.49,189.01,216.78,28.424
373.37,0.103713889,188.02,181.49,188.98,216.82,28.423
375.44,0.104288889,188.05,181.51,188.95,216.82,28.423
377.5,0.104861111,188.04,181.52,188.92,216.84,28.423
379.59,0.105441667,188.03,181.48,188.92,216.9,28.423
381.66,0.106016667,188.03,181.44,188.91,216.96,28.422
383.75,0.106597222,188.05,181.42,188.89,217.03,28.421
385.81,0.107169444,188.05,181.4,188.85,217.01,28.422
387.88,0.107744444,188.05,181.4,188.83,217.02,28.422
389.94,0.108316667,188.07,181.4,188.84,217.02,28.421
392.01,0.108891667,188.05,181.38,188.82,217.04,28.421
394.08,0.109466667,188.04,181.37,188.79,217.05,28.421
396.15,0.110041667,187.99,181.36,188.75,217.08,28.422
398.21,0.110613889,188.01,181.35,188.75,217.13,28.42
400.27,0.111186111,187.97,181.31,188.72,217.16,28.423
402.34,0.111761111,187.98,181.28,188.69,217.19,28.424
404.42,0.112338889,187.99,181.27,188.66,217.21,28.425
406.48,0.112911111,188.04,181.23,188.65,217.25,28.424
408.55,0.113486111,188.05,181.19,188.63,217.24,28.423
410.64,0.114066667,188.05,181.13,188.61,217.26,28.425
412.72,0.114644444,188.03,181.1,188.61,217.26,28.426
414.79,0.115219444,188.02,181.08,188.6,217.31,28.427
416.87,0.115797222,188,181.06,188.59,217.33,28.428
418.94,0.116372222,188.01,181.04,188.59,217.34,28.426
421.01,0.116947222,188.02,181.02,188.59,217.37,28.427
423.08,0.117522222,188.02,181,188.59,217.4,28.425
425.14,0.118094444,188.02,180.97,188.56,217.44,28.427
427.21,0.118669444,188,180.93,188.54,217.45,28.428
429.28,0.119244444,188.01,180.9,188.52,217.46,28.429
431.34,0.119816667,187.99,180.89,188.51,217.47,28.429
433.44,0.1204,187.99,180.88,188.49,217.49,28.428
435.51,0.120975,188.02,180.89,188.5,217.51,28.426
437.57,0.121547222,188.02,180.88,188.51,217.52,28.424
439.65,0.122125,188.02,180.87,188.52,217.52,28.422
441.74,0.122705556,188,180.85,188.49,217.54,28.423
443.83,0.123286111,188,180.83,188.42,217.56,28.423
445.9,0.123861111,188,180.82,188.31,217.61,28.425
447.97,0.124436111,187.99,180.81,188.22,217.61,28.426
450.03,0.125008333,187.98,180.81,188.15,217.6,28.426
452.13,0.125591667,187.98,180.78,188.08,217.6,28.426
454.2,0.126166667,187.98,180.77,188.01,217.59,28.427
456.27,0.126741667,188.01,180.75,187.93,217.63,28.428
458.35,0.127319444,188.02,180.77,187.9,217.65,28.426
460.42,0.127894444,188.02,180.79,187.86,217.65,28.427
462.48,0.128466667,188.03,180.82,187.86,217.65,28.425
464.55,0.129041667,188.02,180.83,187.84,217.67,28.424
466.64,0.129622222,188.03,180.82,187.84,217.7,28.423
468.7,0.130194444,188.02,180.8,187.8,217.7,28.423
470.77,0.130769444,188.03,180.79,187.79,217.72,28.424
472.84,0.131344444,188.04,180.79,187.75,217.71,28.426
474.91,0.131919444,188.03,180.79,187.73,217.74,28.428
476.98,0.132494444,188.05,180.81,187.71,217.72,28.425
479.05,0.133069444,188.04,180.8,187.72,217.79,28.423
481.12,0.133644444,188.05,180.83,187.71,217.76,28.421
483.19,0.134219444,188.01,180.82,187.72,217.73,28.423
485.27,0.134797222,188,180.82,187.7,217.75,28.423
487.35,0.135375,187.99,180.8,187.68,217.75,28.425
489.42,0.13595,188.01,180.8,187.63,217.78,28.427
491.49,0.136525,188.04,180.8,187.62,217.78,28.427
493.56,0.1371,188.04,180.8,187.63,217.84,28.423
495.65,0.137680556,188.03,180.8,187.61,217.92,28.423
497.72,0.138255556,188.03,180.81,187.61,217.87,28.422
499.8,0.138833333,188.05,180.79,187.59,217.83,28.425
501.87,0.139408333,188.06,180.77,187.61,217.75,28.423
503.94,0.139983333,188.04,180.72,187.59,217.73,28.423
506.01,0.140558333,188.02,180.72,187.57,217.74,28.423
508.09,0.141136111,188.03,180.69,187.51,217.74,28.423
510.16,0.141711111,188.05,180.7,187.5,217.76,28.423
512.22,0.142283333,188.06,180.69,187.49,217.73,28.424
514.29,0.142858333,188.04,180.69,187.5,217.77,28.425
516.37,0.143436111,188.02,180.7,187.45,217.78,28.424
518.45,0.144013889,188,180.68,187.43,217.81,28.423
520.51,0.144586111,188.02,180.68,187.41,217.87,28.423
522.59,0.145163889,188.03,180.66,187.38,217.97,28.424
524.65,0.145736111,188.04,180.66,187.33,218.09,28.424
526.72,0.146311111,188.03,180.67,187.32,218.11,28.423
528.79,0.146886111,188.03,180.68,187.3,218,28.423
530.87,0.147463889,188.03,180.71,187.29,218.01,28.423
532.94,0.148038889,188.04,180.69,187.26,217.91,28.424
535.01,0.148613889,188.05,180.71,187.26,217.91,28.422
537.08,0.149188889,188.05,180.7,187.26,217.92,28.419
539.14,0.149761111,188.05,180.75,187.22,218.02,28.419
541.21,0.150336111,188.08,180.73,187.2,218.18,28.417
543.31,0.150919444,188.07,180.73,187.18,218.08,28.418
545.41,0.151502778,188.08,180.71,187.18,218.09,28.417
547.47,0.152075,188.07,180.71,187.15,217.94,28.418
549.56,0.152655556,188.07,180.7,187.14,218.05,28.419
551.63,0.153230556,188.07,180.68,187.13,218.09,28.417
553.7,0.153805556,188.08,180.68,187.13,218.08,28.416
555.79,0.154386111,188.07,180.7,187.11,217.94,28.416
557.86,0.154961111,188.06,180.68,187.08,217.63,28.417
559.94,0.155538889,188.05,180.7,187.08,217.56,28.418
562.01,0.156113889,188.06,180.68,187.06,217.44,28.417
564.08,0.156688889,188.08,180.7,187.06,217.45,28.417
566.15,0.157263889,188.09,180.69,187.02,217.31,28.415
568.24,0.157844444,188.11,180.66,186.99,217.2,28.415
570.33,0.158425,188.1,180.65,186.99,217.07,28.414
572.41,0.159002778,188.08,180.64,186.97,217.05,28.415
574.48,0.159577778,188.06,180.67,186.95,217.08,28.415
576.55,0.160152778,188.08,180.65,186.92,217,28.415
578.62,0.160727778,188.08,180.66,186.92,216.94,28.414
580.68,0.1613,188.08,180.66,186.91,216.76,28.414
582.75,0.161875,188.05,180.65,186.88,216.69,28.416
584.81,0.162447222,188.05,180.64,186.86,216.53,28.418
586.9,0.163027778,188.06,180.62,186.86,216.47,28.418
588.97,0.163602778,188.05,180.63,186.85,216.39,28.418
591.05,0.164180556,188.07,180.62,186.84,216.32,28.417
593.12,0.164755556,188.06,180.62,186.79,216.19,28.419
595.2,0.165333333,188.06,180.61,186.77,216.04,28.418
597.28,0.165911111,188.03,180.61,186.75,215.86,28.419
599.35,0.166486111,188.03,180.6,186.75,215.67,28.418
601.41,0.167058333,188.04,180.61,186.72,215.5,28.419
603.48,0.167633333,188.04,180.58,186.72,215.33,28.419
605.55,0.168208333,188.05,180.57,186.7,215.2,28.418
607.62,0.168783333,188.06,180.56,186.7,215.07,28.416
609.69,0.169358333,188.04,180.55,186.68,214.93,28.419
611.76,0.169933333,188.06,180.53,186.63,214.77,28.42
613.83,0.170508333,188.07,180.52,186.6,214.61,28.422
615.9,0.171083333,188.1,180.53,186.58,214.47,28.419
617.98,0.171661111,188.09,180.54,186.58,214.26,28.418
620.06,0.172238889,188.08,180.53,186.56,213.97,28.417
622.13,0.172813889,188.06,180.51,186.53,213.62,28.419
624.2,0.173388889,188.07,180.49,186.51,213.28,28.419
626.29,0.173969444,188.08,180.47,186.51,212.96,28.419
628.36,0.174544444,188.08,180.47,186.52,212.69,28.418
630.43,0.175119444,188.05,180.45,186.48,212.47,28.421
632.49,0.175691667,188.06,180.45,186.48,212.29,28.421
634.58,0.176272222,188.06,180.44,186.46,212.15,28.421
636.66,0.17685,188.06,180.42,186.46,211.99,28.422
638.76,0.177433333,188.06,180.43,186.44,211.87,28.421
640.84,0.178011111,188.06,180.4,186.43,211.68,28.422
642.91,0.178586111,188.08,180.4,186.42,211.51,28.421
644.98,0.179161111,188.06,180.38,186.41,211.36,28.423
647.05,0.179736111,188.08,180.41,186.41,211.31,28.421
649.12,0.180311111,188.08,180.41,186.4,211.3,28.42
651.2,0.180888889,188.08,180.4,186.37,211.26,28.418
653.27,0.181463889,188.08,180.37,186.36,211.2,28.418
655.34,0.182038889,188.08,180.36,186.33,211.12,28.419
657.4,0.182611111,188.06,180.37,186.33,211.12,28.419
659.49,0.183191667,188.07,180.38,186.31,211.1,28.419
661.56,0.183766667,188.09,180.35,186.33,211.07,28.419
663.63,0.184341667,188.1,180.35,186.33,210.98,28.419
665.73,0.184925,188.08,180.34,186.35,210.93,28.42
667.8,0.1855,188.07,180.37,186.35,210.91,28.417
669.87,0.186075,188.07,180.33,186.36,210.85,28.418
671.97,0.186658333,188.07,180.33,186.35,210.8,28.416
674.07,0.187241667,188.09,180.31,186.34,210.73,28.416
676.14,0.187816667,188.11,180.31,186.33,210.7,28.415
678.23,0.188397222,188.12,180.3,186.32,210.62,28.416
680.31,0.188975,188.09,180.28,186.32,210.56,28.417
682.4,0.189555556,188.1,180.28,186.31,210.48,28.416
684.46,0.190127778,188.11,180.25,186.29,210.44,28.415
686.56,0.190711111,188.12,180.25,186.28,210.37,28.415
688.63,0.191286111,188.1,180.23,186.27,210.34,28.416
690.71,0.191863889,188.09,180.21,186.27,210.28,28.416
692.78,0.192438889,188.06,180.21,186.26,210.25,28.417
694.87,0.193019444,188.08,180.22,186.27,210.19,28.416
696.95,0.193597222,188.08,180.22,186.25,210.13,28.416
699.01,0.194169444,188.09,180.2,186.22,210.06,28.416
701.1,0.19475,188.07,180.18,186.23,210.04,28.415
703.17,0.195325,188.08,180.16,186.22,209.98,28.415
705.24,0.1959,188.08,180.15,186.25,209.95,28.414
707.31,0.196475,188.1,180.15,186.25,209.92,28.412
709.38,0.19705,188.11,180.17,186.25,209.92,28.411
711.47,0.197630556,188.13,180.18,186.22,209.88,28.411
713.54,0.198205556,188.1,180.17,186.18,209.8,28.413
715.61,0.198780556,188.09,180.16,186.16,209.77,28.415
717.69,0.199358333,188.09,180.14,186.17,209.75,28.413
719.75,0.199930556,188.11,180.14,186.19,209.76,28.411
721.84,0.200511111,188.12,180.14,186.19,209.78,28.41
723.91,0.201086111,188.11,180.13,186.19,209.74,28.41
725.98,0.201661111,188.1,180.12,186.18,209.69,28.412
728.06,0.202238889,188.1,180.11,186.18,209.6,28.413
730.14,0.202816667,188.13,180.12,186.16,209.58,28.414
732.21,0.203391667,188.14,180.12,186.17,209.58,28.412
734.29,0.203969444,188.14,180.11,186.18,209.57,28.411
736.35,0.204541667,188.12,180.11,186.18,209.59,28.409
738.44,0.205122222,188.11,180.1,186.19,209.58,28.409
740.51,0.205697222,188.11,180.09,186.16,209.57,28.409
742.58,0.206272222,188.12,180.06,186.16,209.53,28.411
744.64,0.206844444,188.12,180.05,186.15,209.49,28.411
746.7,0.207416667,188.11,180.06,186.15,209.48,28.412
748.78,0.207994444,188.13,180.06,186.14,209.46,28.412
750.85,0.208569444,188.13,180.07,186.12,209.44,28.412
752.93,0.209147222,188.14,180.08,186.11,209.43,28.41
755.01,0.209725,188.13,180.07,186.12,209.46,28.41
757.08,0.2103,188.14,180.05,186.13,209.49,28.41
759.16,0.210877778,188.13,180.04,186.15,209.46,28.41
761.23,0.211452778,188.13,180.02,186.12,209.46,28.41
763.3,0.212027778,188.15,180.02,186.1,209.43,28.41
765.38,0.212605556,188.15,180.02,186.07,209.44,28.411
767.48,0.213188889,188.16,180.02,186.08,209.43,28.41
769.55,0.213763889,188.16,180.03,186.07,209.46,28.407
771.63,0.214341667,188.18,180.03,186.08,209.5,28.403
773.7,0.214916667,188.2,180.06,186.1,209.46,28.401
775.79,0.215497222,188.21,180.04,186.11,209.43,28.401
777.85,0.216069444,188.2,180.01,186.09,209.38,28.403
779.95,0.216652778,188.18,179.97,186.06,209.4,28.403
782.03,0.217230556,188.16,179.97,186.05,209.39,28.402
784.1,0.217805556,188.19,179.98,186.06,209.4,28.399
786.17,0.218380556,188.19,179.99,186.07,209.41,28.398
788.24,0.218955556,188.19,179.97,186.07,209.39,28.399
790.31,0.219530556,188.18,179.96,186.1,209.36,28.399
792.38,0.220105556,188.19,179.93,186.1,209.34,28.4
