seconds,hours,Ch1,Ch2,Ch3,Ch4,Temp
0.929,0.000258056,192.320663,185.410049,181.501144,186.224182,27.011
5.926,0.001646111,193.194946,185.318253,181.991455,187.390396,27.013
10.928,0.003035556,191.825867,185.17601,183.390396,186.650085,27.015
15.927,0.004424167,193.265961,185.881363,181.507278,187.457001,27.016
20.929,0.005813611,191.859665,183.683533,183.416748,186.241089,27.014
25.928,0.007202222,192.451126,184.015518,182.260269,187.023163,27.014
30.929,0.008591389,193.65033,185.404999,183.562103,188.51123,27.017
35.93,0.009980556,192.299774,183.1689,182.924332,186.841553,27.014
40.93,0.011369444,194.637573,184.922226,182.682724,185.665237,27.019
45.93,0.012758333,191.581741,184.900162,182.697617,186.533325,27.017
50.932,0.014147778,193.108353,185.656586,183.572067,186.906006,27.016
55.927,0.015535278,193.563324,184.400543,181.746613,188.159225,27.012
60.929,0.016924722,193.394821,184.084381,181.772537,186.72464,27.015
65.93,0.018313889,192.720459,184.729401,183.463043,186.045441,27.019
70.93,0.019702778,190.927261,184.962585,181.700912,187.359833,27.016
75.93,0.021091667,192.075653,184.311371,183.623428,186.846619,27.012
80.928,0.02248,191.747925,184.719345,182.388062,187.204971,27.017
85.929,0.023869167,191.519608,184.101273,182.121414,185.722397,27.014
90.933,0.025259167,193.171432,184.185303,183.235321,186.853455,27.021
95.933,0.026648056,192.396317,183.320724,181.338501,187.227142,27.019
100.932,0.028036667,190.520035,183.815979,181.89122,187.822311,27.018
105.932,0.029425556,190.299103,183.609879,181.588669,187.194839,27.018
110.933,0.030814722,189.760986,184.311386,181.946869,188.360092,27.019
115.933,0.032203611,191.260498,184.153275,181.998825,186.411621,27.019
120.932,0.033592222,190.399139,185.123596,183.126587,187.591721,27.021
125.933,0.034981389,191.376968,184.444489,182.034729,187.045273,27.018
130.935,0.036370833,191.439087,182.929031,182.595627,187.030029,27.021
135.936,0.03776,191.100143,185.347397,181.471527,187.109863,27.018
140.935,0.039148611,189.492813,184.629929,181.573822,185.633347,27.02
144.853,0.040236944,191.922028,183.668533,181.359406,186.480942,27.019
149.851,0.041625278,190.945206,184.81572,183.292892,186.736542,27.019
154.852,0.043014444,192.145905,185.434189,182.67775,186.513062,27.019
159.854,0.044403889,191.688141,183.857819,182.152435,187.897507,27.021
164.851,0.045791944,190.206558,184.726257,181.237579,187.972794,27.019
169.852,0.047181111,190.872971,183.911575,182.682724,187.677063,27.019
174.854,0.048570556,191.906403,184.87999,180.703705,187.281647,27.023
179.852,0.049958889,191.151749,185.018784,181.651474,185.819824,27.024
184.853,0.051348056,191.711456,185.028915,182.41539,187.516708,27.022
189.856,0.052737778,190.383636,183.516266,182.9207,186.860321,27.024
194.853,0.054125833,191.395035,185.406937,181.953033,185.866913,27.022
199.854,0.055515,189.860596,184.773453,182.425339,186.062317,27.021
204.853,0.056903611,193.155701,183.995468,182.487442,187.084412,27.025
209.852,0.058292222,191.511642,183.795914,181.979004,188.301865,27.023
214.853,0.059681389,192.252777,184.783554,182.240387,186.684021,27.023
219.855,0.061070833,193.048004,184.555725,181.922089,186.062302,27.02
224.855,0.062459722,192.885422,183.54805,181.313843,186.694183,27.021
229.854,0.063848333,189.878357,184.180222,181.8405,186.264679,27.025
234.854,0.065237222,191.017426,184.746399,183.474426,188.156082,27.022
239.855,0.066626389,190.322098,184.476501,182.384369,187.484329,27.02
244.853,0.068014722,192.169342,184.249222,182.276382,188.367142,27.023
249.854,0.069403889,190.841843,182.924042,182.549637,186.785675,27.024
254.856,0.070793333,190.620346,185.461441,181.075226,186.945145,27.021
259.856,0.072182222,192.04689,183.980423,180.077011,186.492783,27.023
264.855,0.073570833,192.443283,184.785461,181.897369,186.940079,27.023
269.857,0.074960278,190.687195,184.064285,181.329788,186.185394,27.027
274.856,0.076348889,191.895981,183.911575,181.835571,187.014771,27.024
279.857,0.077738056,190.301392,183.869659,180.912018,187.351456,27.024
284.854,0.079126111,190.901321,184.847809,181.62558,186.806015,27.023
289.856,0.080515556,190.7258,184.684128,182.451401,186.084229,27.023
294.857,0.081904722,188.508865,184.429382,181.912201,186.413361,27.024
299.857,0.083293611,190.76445,184.325089,181.075226,187.684006,27.024
304.856,0.084682222,189.326523,184.150131,182.498657,186.440384,27.029
309.854,0.086070556,189.145844,184.330124,181.605789,187.533859,27.025
314.856,0.08746,189.571564,183.202316,181.53923,188.248749,27.023
319.855,0.088848611,189.150986,183.753998,181.866425,186.940079,27.024
324.858,0.090238333,190.692398,183.938477,181.554047,187.646484,27.026
329.858,0.091627222,189.906464,183.39592,181.222748,187.074249,27.027
334.857,0.093015833,189.428757,184.313232,180.485886,186.912933,27.021
339.857,0.094404722,190.576553,184.567657,182.333466,185.566147,27.025
344.857,0.095793611,190.517166,185.045929,182.021057,186.770462,27.028
349.859,0.097183056,190.5327,184.308167,181.615707,186.972305,27.024
354.86,0.098572222,189.806793,183.901535,180.481003,187.271469,27.024
359.86,0.099961111,190.48381,185.354462,180.648514,187.042007,27.027
364.86,0.10135,189.9655,185.793228,181.44191,187.774506,27.022
369.864,0.10274,190.759308,183.938477,181.933212,186.440384,27.029
374.864,0.104128889,189.786118,185.013733,180.78566,187.069138,27.028
379.862,0.105517222,190.633011,183.977188,181.949249,187.293625,27.028
384.864,0.106906667,189.978088,186.130981,182.431595,186.393051,27.029
389.865,0.108295833,190.986343,184.113113,182.472534,187.15921,27.025
394.864,0.109684444,190.445236,183.785858,182.246613,187.819046,27.028
399.865,0.111073611,190.854614,184.611694,179.775116,186.962189,27.027
404.865,0.1124625,190.01651,184.73822,182.287567,185.851776,27.028
409.865,0.113851389,190.759308,185.179916,182.565842,187.186462,27.027
414.864,0.11524,187.726059,184.298157,180.811371,186.323776,27.029
419.866,0.116629444,190.006195,183.665283,181.626755,187.47084,27.028
424.866,0.118018333,189.829681,183.812714,183.050507,186.445435,27.026
429.87,0.119408333,191.314636,183.844559,181.38147,187.503281,27.032
434.866,0.120796111,190.766846,185.650452,180.685104,186.303543,27.032
439.868,0.122185556,189.934494,184.468338,182.236694,187.026718,27.03
444.866,0.123573889,186.257721,184.951279,181.698349,186.128021,27.031
449.866,0.124962778,188.44014,184.522354,181.081284,186.165131,27.03
454.866,0.126351667,189.092255,184.066101,181.626755,187.701218,27.03
459.867,0.127740833,188.853271,184.480255,182.262741,185.388245,27.03
464.87,0.129130556,190.955185,183.204025,181.290298,186.702744,27.033
469.869,0.130519167,189.479538,183.167328,181.990128,187.406052,27.029
474.893,0.131914722,189.492035,184.453262,181.04071,185.742447,27.032
479.875,0.133298611,191.071442,184.606659,181.321091,185.520721,27.033
484.872,0.134686667,189.000534,183.977188,181.330963,185.59462,27.032
489.87,0.136075,189.995865,184.215927,182.72139,187.873856,27.033
494.87,0.137463889,188.647583,185.159729,180.431854,185.478806,27.036
499.872,0.138853333,189.214111,184.564545,180.791656,187.600586,27.034
504.869,0.140241389,189.048965,184.051086,180.451492,185.720596,27.032
509.872,0.141631111,188.576675,184.554459,182.514877,186.712891,27.032
514.871,0.143019722,189.980362,184.077972,181.030869,185.658417,27.036
519.87,0.144408333,189.333893,184.327026,179.830902,184.481293,27.034
524.875,0.145798611,189.290527,184.183929,182.613113,186.740036,27.034
529.872,0.147186667,190.193344,184.448196,181.290314,185.900574,27.032
534.872,0.148575556,189.985535,183.098969,181.898544,187.788437,27.035
539.874,0.149965,188.680481,184.278046,181.218933,187.713257,27.035
544.874,0.151353889,188.967545,184.522369,181.39743,186.787445,27.033
549.876,0.152743333,189.148041,183.839554,181.233719,186.553741,27.034
554.874,0.154131667,188.245377,185.458389,180.123138,185.863541,27.031
559.881,0.1555225,189.344177,184.198959,182.195801,187.34816,27.034
564.877,0.156910278,187.700562,184.660812,181.428223,186.479294,27.033
569.878,0.158299444,191.376678,184.760269,181.791016,186.857025,27.034
574.878,0.159688333,189.634995,184.926102,182.032257,186.404892,27.032
579.879,0.1610775,188.354004,183.982208,180.649582,184.89975,27.032
584.88,0.162466667,188.187012,184.072983,181.642776,185.326202,27.034
589.881,0.163855833,187.738297,184.358994,180.528412,187.183197,27.034
594.879,0.165244167,189.706512,184.643814,181.259537,185.399994,27.037
599.882,0.166633889,187.879196,183.846405,182.207001,187.252975,27.035
604.884,0.168023333,191.783997,184.581512,181.189346,185.532455,27.037
609.881,0.169411389,188.507919,185.266571,181.19426,186.119629,27.038
614.892,0.170803333,188.685593,184.921082,181.183258,186.298462,27.033
619.881,0.172189167,188.101059,183.962173,180.497833,186.874069,27.038
624.886,0.173579444,188.865692,183.325912,180.45256,186.996246,27.034
629.883,0.1749675,188.6147,184.702957,180.990372,186.075745,27.033
634.885,0.176356944,187.270889,184.32196,181.270599,186.42691,27.037
639.884,0.177745556,187.228134,183.546555,181.168518,185.712158,27.038
644.886,0.179135,189.744873,184.883881,179.886765,185.347931,27.037
649.893,0.180525833,188.502808,185.321045,181.546509,186.268127,27.038
654.886,0.181912778,190.046951,184.549454,180.209641,187.322769,27.037
659.887,0.183301944,188.959473,185.097198,180.655609,186.040359,27.039
664.886,0.184690556,189.285385,184.687836,181.34697,187.285309,27.037
669.888,0.18608,186.473434,184.131882,181.475021,187.01326,27.039
674.888,0.187468889,187.609863,183.777649,181.658798,184.246811,27.038
679.886,0.188857222,189.53775,184.306885,180.194901,187.130493,27.036
684.889,0.190246944,189.998169,183.100677,181.403564,186.565613,27.039
689.888,0.191635556,189.374374,183.900177,180.818481,185.080032,27.041
694.887,0.193024167,189.42804,183.615189,181.730423,186.315369,27.039
699.889,0.194413611,185.621918,184.380966,181.260727,186.826569,27.038
704.891,0.195803056,187.717896,183.683868,181.65387,185.791138,27.039
709.892,0.197192222,188.209564,184.074799,179.630295,185.717163,27.038
714.89,0.198580556,188.307953,183.652039,180.079025,186.81134,27.042
719.89,0.199969444,187.680145,183.352661,181.118057,185.611374,27.038
724.89,0.201358333,188.872955,182.761093,181.357941,185.807968,27.04
729.894,0.202748333,189.83934,182.761093,180.397476,185.048325,27.039
734.894,0.204137222,186.207047,183.494766,179.973068,186.448868,27.039
739.894,0.205526111,185.866852,183.678833,182.290085,187.302383,27.039
744.894,0.206915,188.687729,184.391022,180.792786,186.17865,27.04
749.893,0.208303611,187.755646,184.232819,180.650681,186.943634,27.037
754.893,0.2096925,189.15535,184.343918,180.579697,185.237396,27.039
759.894,0.211081667,188.237244,184.704895,181.424469,186.602905,27.038
764.895,0.212470833,187.659744,182.453934,180.915329,185.254105,27.041
769.894,0.213859444,187.551743,183.600204,180.681274,187.03537,27.042
774.894,0.215248333,187.853668,184.111771,180.468369,186.704498,27.041
779.894,0.216637222,187.192535,182.792664,181.669907,185.973007,27.044
784.897,0.218026944,188.644562,183.789413,181.920822,186.774017,27.043
789.894,0.219415,188.075455,183.437927,180.782928,186.992935,27.042
794.894,0.220803889,187.579208,184.397934,183.028351,185.802933,27.046
799.896,0.222193333,190.021088,183.848206,181.0271,185.993195,27.04
804.896,0.223582222,187.019974,183.632004,180.82338,185.475357,27.041
809.898,0.224971667,188.226974,184.022797,180.600433,186.923325,27.041
814.898,0.226360556,187.315567,184.455109,181.179504,186.067322,27.043
819.897,0.227749167,189.675568,183.452957,182.07431,185.290909,27.041
824.897,0.229138056,187.60672,183.853226,180.955887,186.269852,27.046
829.897,0.230526944,188.97702,184.509155,181.450333,186.094345,27.042
834.899,0.231916389,189.315521,183.548325,181.271729,186.540268,27.042
839.9,0.233305556,187.127579,184.811371,181.38382,186.470886,27.043
844.9,0.234694444,190.192841,183.700699,181.231125,185.013123,27.046
849.902,0.236083889,187.815857,183.59021,181.322266,185.591187,27.041
854.899,0.237471944,189.086365,183.932083,180.600449,185.972992,27.047
859.899,0.238860833,189.369186,183.678864,180.008377,185.733963,27.042
864.902,0.240250556,187.428467,183.948914,179.78688,186.768967,27.044
869.902,0.241639444,189.211151,185.243347,180.884705,186.279938,27.045
874.901,0.243028056,189.369186,183.658798,179.796631,184.954651,27.043
879.901,0.244416944,186.005585,183.501541,179.892685,185.096741,27.045
884.9,0.245805556,188.689911,183.9758,181.440475,185.560944,27.047
889.904,0.247195556,188.347946,185.397751,179.169571,186.631699,27.048
894.904,0.248584444,188.206528,182.641434,179.184204,186.60466,27.047
899.901,0.2499725,188.710403,183.175827,180.524551,184.766006,27.044
904.903,0.251361944,188.689911,183.690689,179.873108,186.036972,27.047
909.906,0.252751667,186.849625,183.643829,180.545303,185.903931,27.044
914.902,0.254139444,185.931091,184.059738,180.200821,187.367157,27.044
919.901,0.255528056,188.684784,184.192657,179.933899,186.031952,27.048
924.908,0.256918889,187.71994,183.917007,181.767502,186.646942,27.047
929.903,0.258306389,187.903687,182.585052,180.408356,187.722153,27.044
934.899,0.259694167,187.408081,185.3927,180.327682,185.898911,27.047
939.902,0.261083889,185.031296,183.896942,180.080048,186.317108,27.045
944.903,0.262473056,187.800522,183.369415,180.453613,186.312027,27.046
949.902,0.263861667,188.575806,183.98587,180.936172,186.333984,27.047
954.901,0.265250278,187.903687,182.809326,180.874847,187.689697,27.045
959.903,0.266639722,187.488525,184.118637,180.443802,186.307007,27.044
964.906,0.268029444,185.794312,183.833206,179.978973,185.930878,27.048
969.906,0.269418333,187.531326,183.759415,180.768173,185.718842,27.046
974.907,0.2708075,186.999649,184.106796,181.226212,185.302643,27.047
979.905,0.272195833,187.860764,183.943909,179.349976,186.641907,27.044
984.904,0.273584444,186.81723,184.007721,180.550217,185.750809,27.045
989.907,0.274974167,187.956848,183.332642,179.751633,186.391449,27.045
994.908,0.276363333,186.882004,183.712494,180.332626,187.05246,27.047
999.907,0.277751944,186.181747,183.082474,180.195953,186.05217,27.046
1004.903,0.279139722,186.129257,182.930862,180.181229,185.008087,27.049
1009.906,0.280529444,188.012085,183.61203,180.363083,184.384537,27.049
1014.906,0.281918333,187.305374,182.726196,180.231323,187.42691,27.047
1019.908,0.283307778,187.651566,183.749329,179.255325,186.840302,27.051
1024.907,0.284696389,188.418732,183.913788,179.501251,186.180374,27.046
1029.905,0.286084722,186.353104,182.648117,180.044708,186.477722,27.049
1034.908,0.287474444,186.614731,184.0867,180.049622,186.562317,27.049
1039.91,0.288863889,187.780106,182.669724,179.933914,185.555847,27.048
1044.908,0.290252222,187.204697,182.972473,180.957001,186.547119,27.05
1049.907,0.291640833,188.913239,183.623795,180.211685,186.813141,27.049
1054.91,0.293030556,187.069641,182.424103,181.721771,186.711349,27.046
1059.911,0.294419722,187.214859,184.118637,181.002457,185.481995,27.049
1064.909,0.295808056,187.888382,184.382858,178.799881,186.472656,27.05
1069.911,0.2971975,187.011734,182.816025,180.393661,187.889801,27.049
1074.911,0.298586389,187.500717,183.402924,179.571655,187.28392,27.052
1079.91,0.299975,186.529785,183.675644,180.287369,185.508881,27.05
1084.911,0.301364167,185.85347,183.581955,181.420715,187.112,27.048
1089.912,0.302753333,188.489578,183.145828,180.353302,186.063995,27.05
1094.914,0.304142778,186.220886,184.468933,180.799927,185.314331,27.052
1099.91,0.305530556,188.153275,183.628769,180.070251,186.994751,27.051
1104.911,0.306919722,185.922836,183.072479,181.548904,185.688553,27.052
1109.912,0.308308889,186.188644,183.260941,179.426041,186.356003,27.049
1114.914,0.309698333,187.543533,183.234222,181.211411,184.951202,27.051
1119.912,0.311086667,188.180939,184.419922,180.3228,186.504822,27.049
1124.913,0.312475833,187.317551,182.664719,179.079941,184.814346,27.048
1129.913,0.313864722,188.849442,184.140594,179.325531,186.904816,27.053
1134.931,0.315258611,185.55127,184.404846,181.018387,185.79451,27.051
1139.925,0.316645833,186.482285,183.628784,180.378906,185.282486,27.052
1144.912,0.318031111,185.635605,182.669724,181.272934,186.026886,27.051
1149.914,0.319420556,188.132797,182.925842,180.94223,186.345871,27.053
1154.913,0.320809167,187.878128,183.429733,180.556198,186.138214,27.05
1159.913,0.322198056,187.011734,182.5186,180.819611,185.103378,27.05
1164.929,0.323591389,187.787247,183.444748,180.19696,185.705383,27.056
1169.916,0.324976667,187.684204,182.482101,180.875961,185.419922,27.051
1174.913,0.326364722,187.177261,182.957504,179.717377,184.306335,27.049
1179.913,0.327753611,186.803894,183.307663,179.496368,185.377975,27.055
1184.913,0.3291425,187.636246,182.779404,180.556198,185.821426,27.054
1189.911,0.330530833,186.851517,182.591629,180.303177,184.427658,27.052
1194.913,0.331920278,186.220886,183.204254,179.823151,185.789474,27.052
1199.917,0.333310278,185.05983,182.462219,179.934906,185.557526,27.055
1204.914,0.334698333,187.071594,185.053787,180.303177,185.372955,27.053
1209.915,0.3360875,187.034042,182.555145,180.232361,186.117935,27.055
1214.914,0.337476111,187.254456,183.152573,179.547195,186.266479,27.052
1219.913,0.338864722,187.819931,183.277695,179.944702,187.531113,27.056
1224.914,0.340253889,184.912109,183.498291,180.444916,185.747406,27.054
1229.918,0.341643889,187.442673,183.172531,179.617615,185.55751,27.055
1234.913,0.343031389,187.344986,183.287643,180.338593,186.76059,27.051
1239.913,0.344420278,187.307343,183.341217,179.662613,185.942688,27.05
1244.93,0.345813889,186.11409,183.172531,179.949615,185.794525,27.053
1249.915,0.347198611,188.274185,182.472153,181.00853,186.006668,27.055
1254.916,0.348587778,186.73909,183.094147,181.227371,185.130112,27.053
1259.918,0.349977222,186.631897,183.366196,180.060455,184.909424,27.053
1264.914,0.351365,186.921432,183.645615,180.657791,186.085937,27.053
1269.915,0.352754167,189.07312,183.682465,179.336243,186.149994,27.055
1274.916,0.354143333,185.493988,182.430695,180.257935,185.404816,27.055
1279.918,0.355532778,187.754593,183.70929,179.456329,184.867645,27.053
1284.917,0.356921389,187.560822,183.655594,178.930099,185.858475,27.055
1289.918,0.358310556,186.916367,183.788071,179.346024,185.225479,27.055
1294.915,0.359698611,186.723877,182.097855,178.287079,185.510513,27.057
1299.915,0.3610875,187.269745,182.545181,180.192062,186.239471,27.053
1304.916,0.362476667,185.743774,182.540192,179.40654,185.073212,27.057
1309.913,0.363864722,186.078659,183.446487,179.401642,184.407623,27.056
1314.917,0.365254722,184.680832,182.827698,179.512009,184.774124,27.055
1319.931,0.3666475,185.499023,183.756165,180.622284,186.33577,27.054
1324.916,0.368032222,186.969131,183.561935,180.871078,184.459229,27.054
1329.916,0.369421111,187.512955,183.456467,179.728134,185.299194,27.057
1334.917,0.370810278,185.642395,183.210983,178.177795,184.637421,27.056
1339.917,0.372199167,187.804611,182.764465,178.94075,186.209091,27.06
1344.917,0.373588056,187.041077,183.277679,180.248123,185.796173,27.059
1349.918,0.374977222,186.242966,183.598755,178.740585,185.483673,27.055
1354.916,0.376365556,186.814041,183.561951,178.336487,184.936142,27.054
1359.919,0.377755278,185.664383,183.289459,179.396774,184.360992,27.058
1364.918,0.379143889,188.339813,183.751144,179.556961,185.39473,27.059
1369.917,0.3805325,186.558929,183.419708,179.607849,185.168533,27.059
1374.919,0.381921944,186.462006,182.869278,180.891861,186.144974,27.055
1379.917,0.383310278,185.012833,183.162537,180.57692,184.999603,27.055
1384.919,0.384699722,186.004181,184.179443,178.691025,184.994583,27.057
1389.918,0.386088333,185.684631,183.74118,180.040894,183.937759,27.056
1394.919,0.3874775,188.026367,184.184464,179.211411,185.242187,27.059
1399.919,0.388866389,187.061447,183.778046,179.476822,185.252258,27.057
1404.918,0.390255,186.863617,183.105881,179.819244,185.026352,27.059
1409.918,0.391643889,185.81813,183.546921,179.880035,184.407623,27.059
